# Te [K]  Qff_DL [cm^5]  Qff_PL [cm^5]  Qff_KW [cm^5] int_DL  int_PL  int_KD abserr_int_DL  abserr_int_PL  abserr_int_KW
3.00000000e+02 2.92894094e-41 1.86014360e-40 3.93527320e-40 2.92894094e-41 1.86014360e-40 3.93527320e-40 1.67901113e-11 1.02554591e-10 2.22271691e-10
4.00000000e+02 3.87699940e-41 1.88653241e-40 3.97112287e-40 3.87699940e-41 1.88653241e-40 3.97112287e-40 3.38352865e-11 1.66445580e-10 3.10345198e-10
5.00000000e+02 4.89290398e-41 1.91295772e-40 4.00718339e-40 4.89290398e-41 1.91295772e-40 4.00718339e-40 6.01586621e-11 2.35815188e-10 4.82152136e-10
6.00000000e+02 5.96789381e-41 1.93947909e-40 4.04345257e-40 5.96789381e-41 1.93947909e-40 4.04345257e-40 9.63495580e-11 2.98799148e-10 6.33180313e-10
7.00000000e+02 7.08716705e-41 1.96614252e-40 4.07992886e-40 7.08716705e-41 1.96614252e-40 4.07992886e-40 1.44549737e-10 3.85994488e-10 8.18493237e-10
8.00000000e+02 8.23151313e-41 1.99298458e-40 4.11661051e-40 8.23151313e-41 1.99298458e-40 4.11661051e-40 2.06065643e-10 4.91470768e-10 1.00364131e-09
9.00000000e+02 9.38116202e-41 2.02003441e-40 4.15349573e-40 9.38116202e-41 2.02003441e-40 4.15349573e-40 2.79803919e-10 6.00050266e-10 1.20958521e-09
1.00000000e+03 1.05186699e-40 2.04731493e-40 4.19058282e-40 1.05186699e-40 2.04731493e-40 4.19058282e-40 3.65525816e-10 7.10240494e-10 1.44584383e-09
1.10000000e+03 1.16302708e-40 2.07484377e-40 4.22787023e-40 1.16302708e-40 2.07484377e-40 4.22787023e-40 4.68256354e-10 8.19629456e-10 1.68457999e-09
1.20000000e+03 1.27060935e-40 2.10263412e-40 4.26535652e-40 1.27060935e-40 2.10263412e-40 4.26535652e-40 5.82165009e-10 9.47105426e-10 1.94018051e-09
1.30000000e+03 1.37397632e-40 2.13069546e-40 4.30304024e-40 1.37397632e-40 2.13069546e-40 4.30304024e-40 7.11293239e-10 1.05165599e-09 2.09812352e-09
1.40000000e+03 1.47277621e-40 2.15903429e-40 4.34091992e-40 1.47277621e-40 2.15903429e-40 4.34091992e-40 8.50513915e-10 1.20404401e-09 2.45880604e-09
1.50000000e+03 1.56687615e-40 2.18765465e-40 4.37899397e-40 1.56687615e-40 2.18765465e-40 4.37899397e-40 1.00328752e-09 1.34894322e-09 2.74995649e-09
1.60000000e+03 1.65630261e-40 2.21655868e-40 4.41726064e-40 1.65630261e-40 2.21655868e-40 4.41726064e-40 1.17322458e-09 1.50695820e-09 3.05845353e-09
1.70000000e+03 1.74119249e-40 2.24574697e-40 4.45571804e-40 1.74119249e-40 2.24574697e-40 4.45571804e-40 1.34795922e-09 1.69951433e-09 3.43049736e-09
1.80000000e+03 1.82175505e-40 2.27521898e-40 4.49436411e-40 1.82175505e-40 2.27521898e-40 4.49436411e-40 1.53349983e-09 1.89259983e-09 3.67773823e-09
1.90000000e+03 1.89824329e-40 2.30497324e-40 4.53319663e-40 1.89824329e-40 2.30497324e-40 4.53319663e-40 1.72189602e-09 2.08104728e-09 4.08728796e-09
2.00000000e+03 1.97093312e-40 2.33500763e-40 4.57221325e-40 1.97093312e-40 2.33500763e-40 4.57221325e-40 1.94901363e-09 2.30178587e-09 4.36626196e-09
2.10000000e+03 2.04010862e-40 2.36531954e-40 4.61141150e-40 2.04010862e-40 2.36531954e-40 4.61141150e-40 2.16896453e-09 2.50958779e-09 4.76476598e-09
2.20000000e+03 2.10605188e-40 2.39590599e-40 4.65078882e-40 2.10605188e-40 2.39590599e-40 4.65078882e-40 2.39014529e-09 2.70691484e-09 5.25546641e-09
2.30000000e+03 2.16903627e-40 2.42676379e-40 4.69034255e-40 2.16903627e-40 2.42676379e-40 4.69034255e-40 2.62971972e-09 2.93712148e-09 5.68466990e-09
2.40000000e+03 2.22932224e-40 2.45788956e-40 4.73007000e-40 2.22932224e-40 2.45788956e-40 4.73007000e-40 2.89841782e-09 3.16458772e-09 6.06832608e-09
2.50000000e+03 2.28715479e-40 2.48927984e-40 4.76996840e-40 2.28715479e-40 2.48927984e-40 4.76996840e-40 3.14339725e-09 3.34989408e-09 6.49396132e-09
2.60000000e+03 2.34276235e-40 2.52093112e-40 4.81003500e-40 2.34276235e-40 2.52093112e-40 4.81003500e-40 3.41816749e-09 3.61212614e-09 7.00309846e-09
2.70000000e+03 2.39635636e-40 2.55283989e-40 4.85026700e-40 2.39635636e-40 2.55283989e-40 4.85026700e-40 3.71997250e-09 3.89967464e-09 7.42004608e-09
2.80000000e+03 2.44813154e-40 2.58500264e-40 4.89066159e-40 2.44813154e-40 2.58500264e-40 4.89066159e-40 4.01325178e-09 4.16130162e-09 7.94054934e-09
2.90000000e+03 2.49826648e-40 2.61741589e-40 4.93121596e-40 2.49826648e-40 2.61741589e-40 4.93121596e-40 4.29669283e-09 4.43927763e-09 8.44990848e-09
3.00000000e+03 2.54692450e-40 2.65007622e-40 4.97192732e-40 2.54692450e-40 2.65007622e-40 4.97192732e-40 4.60356997e-09 4.79671483e-09 8.86578645e-09
3.10000000e+03 2.59425457e-40 2.68298024e-40 5.01279286e-40 2.59425457e-40 2.68298024e-40 5.01279286e-40 4.94085895e-09 5.07820204e-09 9.35165377e-09
3.20000000e+03 2.64039235e-40 2.71612461e-40 5.05380978e-40 2.64039235e-40 2.71612461e-40 5.05380978e-40 5.28237185e-09 5.40504704e-09 1.01039763e-08
3.30000000e+03 2.68546124e-40 2.74950608e-40 5.09497530e-40 2.68546124e-40 2.74950608e-40 5.09497530e-40 5.63405869e-09 5.66933129e-09 1.04707734e-08
3.40000000e+03 2.72957334e-40 2.78312142e-40 5.13628664e-40 2.72957334e-40 2.78312142e-40 5.13628664e-40 5.97399026e-09 6.03437692e-09 1.12067955e-08
3.50000000e+03 2.77283043e-40 2.81696746e-40 5.17774103e-40 2.77283043e-40 2.81696746e-40 5.17774103e-40 6.30625588e-09 6.45518753e-09 1.17727949e-08
3.60000000e+03 2.81532489e-40 2.85104110e-40 5.21933572e-40 2.81532489e-40 2.85104110e-40 5.21933572e-40 6.70927018e-09 6.76614979e-09 1.23436484e-08
3.70000000e+03 2.85714051e-40 2.88533926e-40 5.26106795e-40 2.85714051e-40 2.88533926e-40 5.26106795e-40 7.11350993e-09 7.13656221e-09 1.30273110e-08
3.80000000e+03 2.89835332e-40 2.91985894e-40 5.30293499e-40 2.89835332e-40 2.91985894e-40 5.30293499e-40 7.51192343e-09 7.49446641e-09 1.36917698e-08
3.90000000e+03 2.93903227e-40 2.95459716e-40 5.34493412e-40 2.93903227e-40 2.95459716e-40 5.34493412e-40 7.90834623e-09 7.94268370e-09 1.43925719e-08
4.00000000e+03 2.97923989e-40 2.98955097e-40 5.38706264e-40 2.97923989e-40 2.98955097e-40 5.38706264e-40 8.28324090e-09 8.26166294e-09 1.49835566e-08
4.10000000e+03 3.01903289e-40 3.02471749e-40 5.42931785e-40 3.01903289e-40 3.02471749e-40 5.42931785e-40 8.75872260e-09 8.69838545e-09 1.56632825e-08
4.20000000e+03 3.05846274e-40 3.06009384e-40 5.47169708e-40 3.05846274e-40 3.06009384e-40 5.47169708e-40 9.14734029e-09 9.18888472e-09 1.63435350e-08
4.30000000e+03 3.09757612e-40 3.09567719e-40 5.51419770e-40 3.09757612e-40 3.09567719e-40 5.51419770e-40 9.60717821e-09 9.66020786e-09 1.71881430e-08
4.40000000e+03 3.13641538e-40 3.13146472e-40 5.55681708e-40 3.13641538e-40 3.13146472e-40 5.55681708e-40 1.01310329e-08 1.00653567e-08 1.78507622e-08
4.50000000e+03 3.17501894e-40 3.16745367e-40 5.59955262e-40 3.17501894e-40 3.16745367e-40 5.59955262e-40 1.06028724e-08 1.05477210e-08 1.86488052e-08
4.60000000e+03 3.21342170e-40 3.20364127e-40 5.64240176e-40 3.21342170e-40 3.20364127e-40 5.64240176e-40 1.10398810e-08 1.10532893e-08 1.94797480e-08
4.70000000e+03 3.25165529e-40 3.24002479e-40 5.68536196e-40 3.25165529e-40 3.24002479e-40 5.68536196e-40 1.15843888e-08 1.14946770e-08 2.00963342e-08
4.80000000e+03 3.28974846e-40 3.27660152e-40 5.72843071e-40 3.28974846e-40 3.27660152e-40 5.72843071e-40 1.20972281e-08 1.19266654e-08 2.10755228e-08
4.90000000e+03 3.32772726e-40 3.31336877e-40 5.77160556e-40 3.32772726e-40 3.31336877e-40 5.77160556e-40 1.25588385e-08 1.25045010e-08 2.18001278e-08
5.00000000e+03 3.36561536e-40 3.35032387e-40 5.81488406e-40 3.36561536e-40 3.35032387e-40 5.81488406e-40 1.31342740e-08 1.29391726e-08 2.24725896e-08
5.10000000e+03 3.40343423e-40 3.38746417e-40 5.85826384e-40 3.40343423e-40 3.38746417e-40 5.85826384e-40 1.36531520e-08 1.36557830e-08 2.33728827e-08
5.20000000e+03 3.44120336e-40 3.42478703e-40 5.90174253e-40 3.44120336e-40 3.42478703e-40 5.90174253e-40 1.42667961e-08 1.40823024e-08 2.44528595e-08
5.30000000e+03 3.47894040e-40 3.46228984e-40 5.94531784e-40 3.47894040e-40 3.46228984e-40 5.94531784e-40 1.48000814e-08 1.47490496e-08 2.53158955e-08
5.40000000e+03 3.51666137e-40 3.49997001e-40 5.98898750e-40 3.51666137e-40 3.49997001e-40 5.98898750e-40 1.54199087e-08 1.52144783e-08 2.62707439e-08
5.50000000e+03 3.55438080e-40 3.53782496e-40 6.03274930e-40 3.55438080e-40 3.53782496e-40 6.03274930e-40 1.60053975e-08 1.59146691e-08 2.68914599e-08
5.60000000e+03 3.59211184e-40 3.57585214e-40 6.07660105e-40 3.59211184e-40 3.57585214e-40 6.07660105e-40 1.66540641e-08 1.65469506e-08 2.81833675e-08
5.70000000e+03 3.62986639e-40 3.61404900e-40 6.12054063e-40 3.62986639e-40 3.61404900e-40 6.12054063e-40 1.72163011e-08 1.71003307e-08 2.91467101e-08
5.80000000e+03 3.66765521e-40 3.65241303e-40 6.16456598e-40 3.66765521e-40 3.65241303e-40 6.16456598e-40 1.78997718e-08 1.78175442e-08 2.99254487e-08
5.90000000e+03 3.70548804e-40 3.69094174e-40 6.20867504e-40 3.70548804e-40 3.69094174e-40 6.20867504e-40 1.85514478e-08 1.83537139e-08 3.10970017e-08
6.00000000e+03 3.74337366e-40 3.72963264e-40 6.25286584e-40 3.74337366e-40 3.72963264e-40 6.25286584e-40 1.92227353e-08 1.91116319e-08 3.17625435e-08
6.10000000e+03 3.78132000e-40 3.76848329e-40 6.29713644e-40 3.78132000e-40 3.76848329e-40 6.29713644e-40 1.98940143e-08 1.97863604e-08 3.31613772e-08
6.20000000e+03 3.81933417e-40 3.80749124e-40 6.34148494e-40 3.81933417e-40 3.80749124e-40 6.34148494e-40 2.05680660e-08 2.05017086e-08 3.39503771e-08
6.30000000e+03 3.85742259e-40 3.84665408e-40 6.38590952e-40 3.85742259e-40 3.84665408e-40 6.38590952e-40 2.13268727e-08 2.12545100e-08 3.53279583e-08
6.40000000e+03 3.89559100e-40 3.88596943e-40 6.43040836e-40 3.89559100e-40 3.88596943e-40 6.43040836e-40 2.20324591e-08 2.19869785e-08 3.63580998e-08
6.50000000e+03 3.93384454e-40 3.92543492e-40 6.47497971e-40 3.93384454e-40 3.92543492e-40 6.47497971e-40 2.27716460e-08 2.27644913e-08 3.75197933e-08
6.60000000e+03 3.97218779e-40 3.96504821e-40 6.51962187e-40 3.97218779e-40 3.96504821e-40 6.51962187e-40 2.34519791e-08 2.33896276e-08 3.86488536e-08
6.70000000e+03 4.01062484e-40 4.00480699e-40 6.56433318e-40 4.01062484e-40 4.00480699e-40 6.56433318e-40 2.43444378e-08 2.43014440e-08 3.94913857e-08
6.80000000e+03 4.04915930e-40 4.04470895e-40 6.60911202e-40 4.04915930e-40 4.04470895e-40 6.60911202e-40 2.51104752e-08 2.50246883e-08 4.07117334e-08
6.90000000e+03 4.08779436e-40 4.08475183e-40 6.65395681e-40 4.08779436e-40 4.08475183e-40 6.65395681e-40 2.59089917e-08 2.58121153e-08 4.21290933e-08
7.00000000e+03 4.12653283e-40 4.12493339e-40 6.69886602e-40 4.12653283e-40 4.12493339e-40 6.69886602e-40 2.67083509e-08 2.66471207e-08 4.33257450e-08
7.10000000e+03 4.16537714e-40 4.16525141e-40 6.74383814e-40 4.16537714e-40 4.16525141e-40 6.74383814e-40 2.75653885e-08 2.75629009e-08 4.46050135e-08
7.20000000e+03 4.20432941e-40 4.20570371e-40 6.78887174e-40 4.20432941e-40 4.20570371e-40 6.78887174e-40 2.84247593e-08 2.84330576e-08 4.58940424e-08
7.30000000e+03 4.24339147e-40 4.24628812e-40 6.83396539e-40 4.24339147e-40 4.24628812e-40 6.83396539e-40 2.92472040e-08 2.91750243e-08 4.70165784e-08
7.40000000e+03 4.28256484e-40 4.28700251e-40 6.87911772e-40 4.28256484e-40 4.28700251e-40 6.87911772e-40 3.01276013e-08 3.01737927e-08 4.83282022e-08
7.50000000e+03 4.32185081e-40 4.32784476e-40 6.92432739e-40 4.32185081e-40 4.32784476e-40 6.92432739e-40 3.10479486e-08 3.09990546e-08 4.93151772e-08
7.60000000e+03 4.36125045e-40 4.36881281e-40 6.96959308e-40 4.36125045e-40 4.36881281e-40 6.96959308e-40 3.19223498e-08 3.18592947e-08 5.10211565e-08
7.70000000e+03 4.40076460e-40 4.40990458e-40 7.01491353e-40 4.40076460e-40 4.40990458e-40 7.01491353e-40 3.27797674e-08 3.27957148e-08 5.22924688e-08
7.80000000e+03 4.44039391e-40 4.45111806e-40 7.06028750e-40 4.44039391e-40 4.45111806e-40 7.06028750e-40 3.38270456e-08 3.38794635e-08 5.34956815e-08
7.90000000e+03 4.48013885e-40 4.49245125e-40 7.10571378e-40 4.48013885e-40 4.49245125e-40 7.10571378e-40 3.48182198e-08 3.48649360e-08 5.51701238e-08
8.00000000e+03 4.51999972e-40 4.53390217e-40 7.15119120e-40 4.51999972e-40 4.53390217e-40 7.15119120e-40 3.57085901e-08 3.58853927e-08 5.64861335e-08
8.10000000e+03 4.55997670e-40 4.57546889e-40 7.19671861e-40 4.55997670e-40 4.57546889e-40 7.19671861e-40 3.66890430e-08 3.68343154e-08 5.80296150e-08
8.20000000e+03 4.60006979e-40 4.61714948e-40 7.24229490e-40 4.60006979e-40 4.61714948e-40 7.24229490e-40 3.77049578e-08 3.78285157e-08 5.92878247e-08
8.30000000e+03 4.64027891e-40 4.65894206e-40 7.28791897e-40 4.64027891e-40 4.65894206e-40 7.28791897e-40 3.88087588e-08 3.89371726e-08 6.06170549e-08
8.40000000e+03 4.68060382e-40 4.70084477e-40 7.33358977e-40 4.68060382e-40 4.70084477e-40 7.33358977e-40 3.98828629e-08 3.99796751e-08 6.21412265e-08
8.50000000e+03 4.72104421e-40 4.74285576e-40 7.37930625e-40 4.72104421e-40 4.74285576e-40 7.37930625e-40 4.08564735e-08 4.08568802e-08 6.37851262e-08
8.60000000e+03 4.76159966e-40 4.78497325e-40 7.42506742e-40 4.76159966e-40 4.78497325e-40 7.42506742e-40 4.19678333e-08 4.20000560e-08 6.53846386e-08
8.70000000e+03 4.80226966e-40 4.82719543e-40 7.47087227e-40 4.80226966e-40 4.82719543e-40 7.47087227e-40 4.30929713e-08 4.33345638e-08 6.70715806e-08
8.80000000e+03 4.84305363e-40 4.86952057e-40 7.51671985e-40 4.84305363e-40 4.86952057e-40 7.51671985e-40 4.42515828e-08 4.43362636e-08 6.83984271e-08
8.90000000e+03 4.88395091e-40 4.91194693e-40 7.56260921e-40 4.88395091e-40 4.91194693e-40 7.56260921e-40 4.53040370e-08 4.53597985e-08 7.02054405e-08
9.00000000e+03 4.92496078e-40 4.95447282e-40 7.60853943e-40 4.92496078e-40 4.95447282e-40 7.60853943e-40 4.65012662e-08 4.67014477e-08 7.15464062e-08
9.10000000e+03 4.96608244e-40 4.99709654e-40 7.65450961e-40 4.96608244e-40 4.99709654e-40 7.65450961e-40 4.76702956e-08 4.79170369e-08 7.32534443e-08
9.20000000e+03 5.00731507e-40 5.03981647e-40 7.70051886e-40 5.00731507e-40 5.03981647e-40 7.70051886e-40 4.88241504e-08 4.92219740e-08 7.47504338e-08
9.30000000e+03 5.04865778e-40 5.08263096e-40 7.74656633e-40 5.04865778e-40 5.08263096e-40 7.74656633e-40 4.99906468e-08 5.02358284e-08 7.68625096e-08
9.40000000e+03 5.09010963e-40 5.12553842e-40 7.79265118e-40 5.09010963e-40 5.12553842e-40 7.79265118e-40 5.12690818e-08 5.16580743e-08 7.84065820e-08
9.50000000e+03 5.13166966e-40 5.16853728e-40 7.83877256e-40 5.13166966e-40 5.16853728e-40 7.83877256e-40 5.24727869e-08 5.28351613e-08 7.97333678e-08
9.60000000e+03 5.17333684e-40 5.21162599e-40 7.88492968e-40 5.17333684e-40 5.21162599e-40 7.88492968e-40 5.38093881e-08 5.42291808e-08 8.17876651e-08
9.70000000e+03 5.21511016e-40 5.25480300e-40 7.93112173e-40 5.21511016e-40 5.25480300e-40 7.93112173e-40 5.50414970e-08 5.53478022e-08 8.37208356e-08
9.80000000e+03 5.25698852e-40 5.29806684e-40 7.97734794e-40 5.25698852e-40 5.29806684e-40 7.97734794e-40 5.63347983e-08 5.68629834e-08 8.55746313e-08
9.90000000e+03 5.29897085e-40 5.34141600e-40 8.02360753e-40 5.29897085e-40 5.34141600e-40 8.02360753e-40 5.77153041e-08 5.82199030e-08 8.73614121e-08
1.00000000e+04 5.34105603e-40 5.38484903e-40 8.06989977e-40 5.34105603e-40 5.38484903e-40 8.06989977e-40 5.91094304e-08 5.94862035e-08 8.89754334e-08
1.01000000e+04 5.38324290e-40 5.42836450e-40 8.11622391e-40 5.38324290e-40 5.42836450e-40 8.11622391e-40 6.04318117e-08 6.09234028e-08 9.08955317e-08
1.02000000e+04 5.42553034e-40 5.47196100e-40 8.16257922e-40 5.42553034e-40 5.47196100e-40 8.16257922e-40 6.18611682e-08 6.22248352e-08 9.30569326e-08
1.03000000e+04 5.46791715e-40 5.51563712e-40 8.20896500e-40 5.46791715e-40 5.51563712e-40 8.20896500e-40 6.31909004e-08 6.34806934e-08 9.46758159e-08
1.04000000e+04 5.51040217e-40 5.55939151e-40 8.25538053e-40 5.51040217e-40 5.55939151e-40 8.25538053e-40 6.46726162e-08 6.51455308e-08 9.67203936e-08
1.05000000e+04 5.55298419e-40 5.60322280e-40 8.30182514e-40 5.55298419e-40 5.60322280e-40 8.30182514e-40 6.60282332e-08 6.64950130e-08 9.86529156e-08
1.06000000e+04 5.59566201e-40 5.64712968e-40 8.34829815e-40 5.59566201e-40 5.64712968e-40 8.34829815e-40 6.75279914e-08 6.80987512e-08 1.00303697e-07
1.07000000e+04 5.63843443e-40 5.69111082e-40 8.39479888e-40 5.63843443e-40 5.69111082e-40 8.39479888e-40 6.90049163e-08 6.96631816e-08 1.02574124e-07
1.08000000e+04 5.68130023e-40 5.73516495e-40 8.44132668e-40 5.68130023e-40 5.73516495e-40 8.44132668e-40 7.05695173e-08 7.11949601e-08 1.04505480e-07
1.09000000e+04 5.72425819e-40 5.77929079e-40 8.48788090e-40 5.72425819e-40 5.77929079e-40 8.48788090e-40 7.20845966e-08 7.26367329e-08 1.06629348e-07
1.10000000e+04 5.76730709e-40 5.82348709e-40 8.53446090e-40 5.76730709e-40 5.82348709e-40 8.53446090e-40 7.35469317e-08 7.38605789e-08 1.08812427e-07
1.11000000e+04 5.81044569e-40 5.86775261e-40 8.58106605e-40 5.81044569e-40 5.86775261e-40 8.58106605e-40 7.51404560e-08 7.57256736e-08 1.10769975e-07
1.12000000e+04 5.85367278e-40 5.91208615e-40 8.62769573e-40 5.85367278e-40 5.91208615e-40 8.62769573e-40 7.67620350e-08 7.73583718e-08 1.12935300e-07
1.13000000e+04 5.89698713e-40 5.95648650e-40 8.67434933e-40 5.89698713e-40 5.95648650e-40 8.67434933e-40 7.82743484e-08 7.91272796e-08 1.15011804e-07
1.14000000e+04 5.94038752e-40 6.00095249e-40 8.72102624e-40 5.94038752e-40 6.00095249e-40 8.72102624e-40 7.99684474e-08 8.03293022e-08 1.17218413e-07
1.15000000e+04 5.98387271e-40 6.04548296e-40 8.76772587e-40 5.98387271e-40 6.04548296e-40 8.76772587e-40 8.16609312e-08 8.22638506e-08 1.19371080e-07
1.16000000e+04 6.02744150e-40 6.09007676e-40 8.81444762e-40 6.02744150e-40 6.09007676e-40 8.81444762e-40 8.33217353e-08 8.41363030e-08 1.21217749e-07
1.17000000e+04 6.07109267e-40 6.13473276e-40 8.86119092e-40 6.07109267e-40 6.13473276e-40 8.86119092e-40 8.50062343e-08 8.57851014e-08 1.23962368e-07
1.18000000e+04 6.11482500e-40 6.17944984e-40 8.90795518e-40 6.11482500e-40 6.17944984e-40 8.90795518e-40 8.67461852e-08 8.75148738e-08 1.25880815e-07
1.19000000e+04 6.15863729e-40 6.22422693e-40 8.95473985e-40 6.15863729e-40 6.22422693e-40 8.95473985e-40 8.84650054e-08 8.91761626e-08 1.28280371e-07
1.20000000e+04 6.20252834e-40 6.26906292e-40 9.00154435e-40 6.20252834e-40 6.26906292e-40 9.00154435e-40 9.01444093e-08 9.10313189e-08 1.30431658e-07
1.21000000e+04 6.24649695e-40 6.31395676e-40 9.04836813e-40 6.24649695e-40 6.31395676e-40 9.04836813e-40 9.18443634e-08 9.26689470e-08 1.33283488e-07
1.22000000e+04 6.29054193e-40 6.35890741e-40 9.09521065e-40 6.29054193e-40 6.35890741e-40 9.09521065e-40 9.36678823e-08 9.44641188e-08 1.35050046e-07
1.23000000e+04 6.33466210e-40 6.40391381e-40 9.14207135e-40 6.33466210e-40 6.40391381e-40 9.14207135e-40 9.55026940e-08 9.65501614e-08 1.37932806e-07
1.24000000e+04 6.37885629e-40 6.44897495e-40 9.18894970e-40 6.37885629e-40 6.44897495e-40 9.18894970e-40 9.72538340e-08 9.81333080e-08 1.40149436e-07
1.25000000e+04 6.42312333e-40 6.49408982e-40 9.23584518e-40 6.42312333e-40 6.49408982e-40 9.23584518e-40 9.92970545e-08 1.00231982e-07 1.42429729e-07
1.26000000e+04 6.46746206e-40 6.53925743e-40 9.28275724e-40 6.46746206e-40 6.53925743e-40 9.28275724e-40 1.01064989e-07 1.02019212e-07 1.45199333e-07
1.27000000e+04 6.51187133e-40 6.58447680e-40 9.32968538e-40 6.51187133e-40 6.58447680e-40 9.32968538e-40 1.03059712e-07 1.03899731e-07 1.47552132e-07
1.28000000e+04 6.55635000e-40 6.62974696e-40 9.37662906e-40 6.55635000e-40 6.62974696e-40 9.37662906e-40 1.05001433e-07 1.06139439e-07 1.50236166e-07
1.29000000e+04 6.60089693e-40 6.67506696e-40 9.42358780e-40 6.60089693e-40 6.67506696e-40 9.42358780e-40 1.06878538e-07 1.08014048e-07 1.51953063e-07
1.30000000e+04 6.64551099e-40 6.72043586e-40 9.47056106e-40 6.64551099e-40 6.72043586e-40 9.47056106e-40 1.08907744e-07 1.10201266e-07 1.55191013e-07
1.31000000e+04 6.69019108e-40 6.76585272e-40 9.51754836e-40 6.69019108e-40 6.76585272e-40 9.51754836e-40 1.10841792e-07 1.12073831e-07 1.56937593e-07
1.32000000e+04 6.73493608e-40 6.81131663e-40 9.56454920e-40 6.73493608e-40 6.81131663e-40 9.56454920e-40 1.12858712e-07 1.14221589e-07 1.60334640e-07
1.33000000e+04 6.77974490e-40 6.85682669e-40 9.61156309e-40 6.77974490e-40 6.85682669e-40 9.61156309e-40 1.15079414e-07 1.16186914e-07 1.62633542e-07
1.34000000e+04 6.82461645e-40 6.90238200e-40 9.65858953e-40 6.82461645e-40 6.90238200e-40 9.65858953e-40 1.17086613e-07 1.18426364e-07 1.65266956e-07
