# Te [K]  Qff_DL [cm^5]  Qff_PL [cm^5]  Qff_KW [cm^5] int_DL  int_PL  int_KD abserr_int_DL  abserr_int_PL  abserr_int_KW
3.00000000e+02 1.01222075e-40 2.76036009e-40 9.37715459e-40 1.01222075e-40 2.76036009e-40 9.37715459e-40 5.65356910e-11 1.43019220e-10 4.57322691e-10
4.00000000e+02 1.17615188e-40 2.81616456e-40 9.45602995e-40 1.17615188e-40 2.81616456e-40 9.45602995e-40 1.01807636e-10 2.33560196e-10 7.87987064e-10
5.00000000e+02 1.32550784e-40 2.87362749e-40 9.54113023e-40 1.32550784e-40 2.87362749e-40 9.54113023e-40 1.61391206e-10 3.44359275e-10 1.13757939e-09
6.00000000e+02 1.46404376e-40 2.93243578e-40 9.63379271e-40 1.46404376e-40 2.93243578e-40 9.63379271e-40 2.36402140e-10 4.65921061e-10 1.41289733e-09
7.00000000e+02 1.59411569e-40 2.99261845e-40 9.73380568e-40 1.59411569e-40 2.99261845e-40 9.73380568e-40 3.22889974e-10 5.87561274e-10 1.74532171e-09
8.00000000e+02 1.71726428e-40 3.05435833e-40 9.83988883e-40 1.71726428e-40 3.05435833e-40 9.83988883e-40 4.25154278e-10 7.50616819e-10 2.26568861e-09
9.00000000e+02 1.83453110e-40 3.11788490e-40 9.95023057e-40 1.83453110e-40 3.11788490e-40 9.95023057e-40 5.37944029e-10 9.26369048e-10 2.91842824e-09
1.00000000e+03 1.94665094e-40 3.18341225e-40 1.00629065e-39 1.94665094e-40 3.18341225e-40 1.00629065e-39 6.70038789e-10 1.07997533e-09 3.29719370e-09
1.10000000e+03 2.05417143e-40 3.25110649e-40 1.01761426e-39 2.05417143e-40 3.25110649e-40 1.01761426e-39 8.10178076e-10 1.30324441e-09 3.96299128e-09
1.20000000e+03 2.15752639e-40 3.32107354e-40 1.02884463e-39 2.15752639e-40 3.32107354e-40 1.02884463e-39 9.67270035e-10 1.52805068e-09 4.54148660e-09
1.30000000e+03 2.25708002e-40 3.39335965e-40 1.03986456e-39 2.25708002e-40 3.39335965e-40 1.03986456e-39 1.15648935e-09 1.70397461e-09 5.24859327e-09
1.40000000e+03 2.35315289e-40 3.46795887e-40 1.05058766e-39 2.35315289e-40 3.46795887e-40 1.05058766e-39 1.35413165e-09 1.94258694e-09 5.97969036e-09
1.50000000e+03 2.44603691e-40 3.54482319e-40 1.06095436e-39 2.44603691e-40 3.54482319e-40 1.06095436e-39 1.55792271e-09 2.27266226e-09 6.68593084e-09
1.60000000e+03 2.53600385e-40 3.62387279e-40 1.07092719e-39 2.53600385e-40 3.62387279e-40 1.07092719e-39 1.78487221e-09 2.53434768e-09 7.28609665e-09
1.70000000e+03 2.62330994e-40 3.70500501e-40 1.08048610e-39 2.62330994e-40 3.70500501e-40 1.08048610e-39 2.02209609e-09 2.86887583e-09 8.19132117e-09
1.80000000e+03 2.70819838e-40 3.78810167e-40 1.08962426e-39 2.70819838e-40 3.78810167e-40 1.08962426e-39 2.25611005e-09 3.19737844e-09 8.84129168e-09
1.90000000e+03 2.79090046e-40 3.87303461e-40 1.09834465e-39 2.79090046e-40 3.87303461e-40 1.09834465e-39 2.54373205e-09 3.48517469e-09 9.46502196e-09
2.00000000e+03 2.87163616e-40 3.95966990e-40 1.10665720e-39 2.87163616e-40 3.95966990e-40 1.10665720e-39 2.81696091e-09 3.80914849e-09 1.05105361e-08
2.10000000e+03 2.95061424e-40 4.04787074e-40 1.11457663e-39 2.95061424e-40 4.04787074e-40 1.11457663e-39 3.10581295e-09 4.31095299e-09 1.17465596e-08
2.20000000e+03 3.02803229e-40 4.13749967e-40 1.12212078e-39 3.02803229e-40 4.13749967e-40 1.12212078e-39 3.44707523e-09 4.61176373e-09 1.26074443e-08
2.30000000e+03 3.10407658e-40 4.22842003e-40 1.12930933e-39 3.10407658e-40 4.22842003e-40 1.12930933e-39 3.78853114e-09 5.13107303e-09 1.34696221e-08
2.40000000e+03 3.17892207e-40 4.32049715e-40 1.13616291e-39 3.17892207e-40 4.32049715e-40 1.13616291e-39 4.12967891e-09 5.60427001e-09 1.46102516e-08
2.50000000e+03 3.25273237e-40 4.41359912e-40 1.14270242e-39 3.25273237e-40 4.41359912e-40 1.14270242e-39 4.45868104e-09 6.08133340e-09 1.53242833e-08
2.60000000e+03 3.32565975e-40 4.50759752e-40 1.14894853e-39 3.32565975e-40 4.50759752e-40 1.14894853e-39 4.86503798e-09 6.59752877e-09 1.64338673e-08
2.70000000e+03 3.39784531e-40 4.60236788e-40 1.15492139e-39 3.39784531e-40 4.60236788e-40 1.15492139e-39 5.25012609e-09 6.89094798e-09 1.73116671e-08
2.80000000e+03 3.46941913e-40 4.69779010e-40 1.16064040e-39 3.46941913e-40 4.69779010e-40 1.16064040e-39 5.68359058e-09 7.62564614e-09 1.86133635e-08
2.90000000e+03 3.54050049e-40 4.79374885e-40 1.16612406e-39 3.54050049e-40 4.79374885e-40 1.16612406e-39 6.07714601e-09 8.26510347e-09 2.01479442e-08
3.00000000e+03 3.61119824e-40 4.89013379e-40 1.17138993e-39 3.61119824e-40 4.89013379e-40 1.17138993e-39 6.56781671e-09 8.80105208e-09 2.08217380e-08
3.10000000e+03 3.68161109e-40 4.98683982e-40 1.17645456e-39 3.68161109e-40 4.98683982e-40 1.17645456e-39 6.96220479e-09 9.46030266e-09 2.22611431e-08
3.20000000e+03 3.75182808e-40 5.08376724e-40 1.18133351e-39 3.75182808e-40 5.08376724e-40 1.18133351e-39 7.51108647e-09 9.86901723e-09 2.31162614e-08
3.30000000e+03 3.82192895e-40 5.18082183e-40 1.18604135e-39 3.82192895e-40 5.18082183e-40 1.18604135e-39 7.95869560e-09 1.08187943e-08 2.47048854e-08
3.40000000e+03 3.89198466e-40 5.27791494e-40 1.19059174e-39 3.89198466e-40 5.27791494e-40 1.19059174e-39 8.51474679e-09 1.14958361e-08 2.54184948e-08
3.50000000e+03 3.96205784e-40 5.37496351e-40 1.19499738e-39 3.96205784e-40 5.37496351e-40 1.19499738e-39 9.02731231e-09 1.22051686e-08 2.68656062e-08
3.60000000e+03 4.03220331e-40 5.47189000e-40 1.19927015e-39 4.03220331e-40 5.47189000e-40 1.19927015e-39 9.55035108e-09 1.29444646e-08 2.80805378e-08
3.70000000e+03 4.10246855e-40 5.56862235e-40 1.20342109e-39 4.10246855e-40 5.56862235e-40 1.20342109e-39 1.01838427e-08 1.34974411e-08 2.99748190e-08
3.80000000e+03 4.17289425e-40 5.66509389e-40 1.20746050e-39 4.17289425e-40 5.66509389e-40 1.20746050e-39 1.07273199e-08 1.46281175e-08 3.06444889e-08
3.90000000e+03 4.24351476e-40 5.76124318e-40 1.21139795e-39 4.24351476e-40 5.76124318e-40 1.21139795e-39 1.13740416e-08 1.54008581e-08 3.21032846e-08
4.00000000e+03 4.31435862e-40 5.85701387e-40 1.21524234e-39 4.31435862e-40 5.85701387e-40 1.21524234e-39 1.19560304e-08 1.60761810e-08 3.37154143e-08
4.10000000e+03 4.38544900e-40 5.95235455e-40 1.21900195e-39 4.38544900e-40 5.95235455e-40 1.21900195e-39 1.25729091e-08 1.70704803e-08 3.43953445e-08
4.20000000e+03 4.45680418e-40 6.04721850e-40 1.22268448e-39 4.45680418e-40 6.04721850e-40 1.22268448e-39 1.33007437e-08 1.78528381e-08 3.54710708e-08
4.30000000e+03 4.52843798e-40 6.14156355e-40 1.22629710e-39 4.52843798e-40 6.14156355e-40 1.22629710e-39 1.39529411e-08 1.91302571e-08 3.74592982e-08
4.40000000e+03 4.60036021e-40 6.23535184e-40 1.22984647e-39 4.60036021e-40 6.23535184e-40 1.22984647e-39 1.46438767e-08 1.98264422e-08 3.93163724e-08
4.50000000e+03 4.67257702e-40 6.32854960e-40 1.23333878e-39 4.67257702e-40 6.32854960e-40 1.23333878e-39 1.54633681e-08 2.08761563e-08 4.08026625e-08
4.60000000e+03 4.74509133e-40 6.42112694e-40 1.23677980e-39 4.74509133e-40 6.42112694e-40 1.23677980e-39 1.63792893e-08 2.19922585e-08 4.22995579e-08
4.70000000e+03 4.81790314e-40 6.51305763e-40 1.24017490e-39 4.81790314e-40 6.51305763e-40 1.24017490e-39 1.71304121e-08 2.29631339e-08 4.34455651e-08
4.80000000e+03 4.89100991e-40 6.60431888e-40 1.24352906e-39 4.89100991e-40 6.60431888e-40 1.24352906e-39 1.79975642e-08 2.35084280e-08 4.40456920e-08
4.90000000e+03 4.96440682e-40 6.69489114e-40 1.24684694e-39 4.96440682e-40 6.69489114e-40 1.24684694e-39 1.87684236e-08 2.50808360e-08 4.59752619e-08
5.00000000e+03 5.03808711e-40 6.78475786e-40 1.25013286e-39 5.03808711e-40 6.78475786e-40 1.25013286e-39 1.95605521e-08 2.62640937e-08 4.78552869e-08
5.10000000e+03 5.11204228e-40 6.87390532e-40 1.25339086e-39 5.11204228e-40 6.87390532e-40 1.25339086e-39 2.05272451e-08 2.73618819e-08 4.88749735e-08
5.20000000e+03 5.18626242e-40 6.96232241e-40 1.25662467e-39 5.18626242e-40 6.96232241e-40 1.25662467e-39 2.12962510e-08 2.87493840e-08 5.09325922e-08
5.30000000e+03 5.26073635e-40 7.05000046e-40 1.25983780e-39 5.26073635e-40 7.05000046e-40 1.25983780e-39 2.22134910e-08 3.00449221e-08 5.26025359e-08
5.40000000e+03 5.33545188e-40 7.13693302e-40 1.26303351e-39 5.33545188e-40 7.13693302e-40 1.26303351e-39 2.34149048e-08 3.06460961e-08 5.36147693e-08
5.50000000e+03 5.41039599e-40 7.22311576e-40 1.26621483e-39 5.41039599e-40 7.22311576e-40 1.26621483e-39 2.43249413e-08 3.23480920e-08 5.60934528e-08
5.60000000e+03 5.48555498e-40 7.30854622e-40 1.26938460e-39 5.48555498e-40 7.30854622e-40 1.26938460e-39 2.51638524e-08 3.38022760e-08 5.76258142e-08
5.70000000e+03 5.56091463e-40 7.39322370e-40 1.27254543e-39 5.56091463e-40 7.39322370e-40 1.27254543e-39 2.62586175e-08 3.45709297e-08 5.98459083e-08
5.80000000e+03 5.63646035e-40 7.47714914e-40 1.27569980e-39 5.63646035e-40 7.47714914e-40 1.27569980e-39 2.73206538e-08 3.57824784e-08 6.06631511e-08
5.90000000e+03 5.71217731e-40 7.56032490e-40 1.27885000e-39 5.71217731e-40 7.56032490e-40 1.27885000e-39 2.84832938e-08 3.75275812e-08 6.21959587e-08
6.00000000e+03 5.78805051e-40 7.64275470e-40 1.28199815e-39 5.78805051e-40 7.64275470e-40 1.28199815e-39 2.96838630e-08 3.86774753e-08 6.35703347e-08
6.10000000e+03 5.86406493e-40 7.72444347e-40 1.28514626e-39 5.86406493e-40 7.72444347e-40 1.28514626e-39 3.06882969e-08 4.04700730e-08 6.50409933e-08
6.20000000e+03 5.94020558e-40 7.80539724e-40 1.28829617e-39 5.94020558e-40 7.80539724e-40 1.28829617e-39 3.16346733e-08 4.21032267e-08 6.77240390e-08
6.30000000e+03 6.01645759e-40 7.88562303e-40 1.29144961e-39 6.01645759e-40 7.88562303e-40 1.29144961e-39 3.31907714e-08 4.35007276e-08 6.87361775e-08
6.40000000e+03 6.09280628e-40 7.96512873e-40 1.29460821e-39 6.09280628e-40 7.96512873e-40 1.29460821e-39 3.44291261e-08 4.39475473e-08 7.27791296e-08
6.50000000e+03 6.16923721e-40 8.04392304e-40 1.29777346e-39 6.16923721e-40 8.04392304e-40 1.29777346e-39 3.56006163e-08 4.54024891e-08 7.40345816e-08
6.60000000e+03 6.24573624e-40 8.12201538e-40 1.30094675e-39 6.24573624e-40 8.12201538e-40 1.30094675e-39 3.68294716e-08 4.76619185e-08 7.38919775e-08
6.70000000e+03 6.32228955e-40 8.19941577e-40 1.30412941e-39 6.32228955e-40 8.19941577e-40 1.30412941e-39 3.82721526e-08 4.90522620e-08 7.62824091e-08
6.80000000e+03 6.39888371e-40 8.27613479e-40 1.30732263e-39 6.39888371e-40 8.27613479e-40 1.30732263e-39 3.96217909e-08 5.10548449e-08 7.83205526e-08
6.90000000e+03 6.47550567e-40 8.35218351e-40 1.31052756e-39 6.47550567e-40 8.35218351e-40 1.31052756e-39 4.10075321e-08 5.26037993e-08 8.18263148e-08
7.00000000e+03 6.55214283e-40 8.42757341e-40 1.31374524e-39 6.55214283e-40 8.42757341e-40 1.31374524e-39 4.20258576e-08 5.38134303e-08 8.36496617e-08
7.10000000e+03 6.62878303e-40 8.50231632e-40 1.31697666e-39 6.62878303e-40 8.50231632e-40 1.31697666e-39 4.35689520e-08 5.47523518e-08 8.41252355e-08
7.20000000e+03 6.70541455e-40 8.57642440e-40 1.32022272e-39 6.70541455e-40 8.57642440e-40 1.32022272e-39 4.53113033e-08 5.74670615e-08 8.90143660e-08
7.30000000e+03 6.78202615e-40 8.64991002e-40 1.32348428e-39 6.78202615e-40 8.64991002e-40 1.32348428e-39 4.68128960e-08 5.85641733e-08 9.00470940e-08
7.40000000e+03 6.85860709e-40 8.72278579e-40 1.32676211e-39 6.85860709e-40 8.72278579e-40 1.32676211e-39 4.80899765e-08 6.08703205e-08 9.06531201e-08
7.50000000e+03 6.93514707e-40 8.79506448e-40 1.33005694e-39 6.93514707e-40 8.79506448e-40 1.33005694e-39 4.97553397e-08 6.31108890e-08 9.37310169e-08
7.60000000e+03 7.01163632e-40 8.86675896e-40 1.33336946e-39 7.01163632e-40 8.86675896e-40 1.33336946e-39 5.10760518e-08 6.40244359e-08 9.36885902e-08
7.70000000e+03 7.08806552e-40 8.93788222e-40 1.33670029e-39 7.08806552e-40 8.93788222e-40 1.33670029e-39 5.28801396e-08 6.48185523e-08 9.99601877e-08
7.80000000e+03 7.16442585e-40 9.00844729e-40 1.34005001e-39 7.16442585e-40 9.00844729e-40 1.34005001e-39 5.44722988e-08 6.72615006e-08 9.77419813e-08
7.90000000e+03 7.24070894e-40 9.07846722e-40 1.34341916e-39 7.24070894e-40 9.07846722e-40 1.34341916e-39 5.59402421e-08 6.96201062e-08 1.04374451e-07
8.00000000e+03 7.31690693e-40 9.14795507e-40 1.34680823e-39 7.31690693e-40 9.14795507e-40 1.34680823e-39 5.71358801e-08 7.21300457e-08 1.03134633e-07
8.10000000e+03 7.39301238e-40 9.21692388e-40 1.35021767e-39 7.39301238e-40 9.21692388e-40 1.35021767e-39 5.91576787e-08 7.39826651e-08 1.07739222e-07
8.20000000e+03 7.46901832e-40 9.28538663e-40 1.35364791e-39 7.46901832e-40 9.28538663e-40 1.35364791e-39 6.10742656e-08 7.62469022e-08 1.10801710e-07
8.30000000e+03 7.54491823e-40 9.35335624e-40 1.35709934e-39 7.54491823e-40 9.35335624e-40 1.35709934e-39 6.25998131e-08 7.82226223e-08 1.10703024e-07
8.40000000e+03 7.62070601e-40 9.42084554e-40 1.36057229e-39 7.62070601e-40 9.42084554e-40 1.36057229e-39 6.46165719e-08 7.91422701e-08 1.15413738e-07
8.50000000e+03 7.69637598e-40 9.48786727e-40 1.36406711e-39 7.69637598e-40 9.48786727e-40 1.36406711e-39 6.61412883e-08 8.20622281e-08 1.18207255e-07
8.60000000e+03 7.77192287e-40 9.55443404e-40 1.36758408e-39 7.77192287e-40 9.55443404e-40 1.36758408e-39 6.76742872e-08 8.31562630e-08 1.17686124e-07
8.70000000e+03 7.84734182e-40 9.62055834e-40 1.37112347e-39 7.84734182e-40 9.62055834e-40 1.37112347e-39 7.00935796e-08 8.63841472e-08 1.21769478e-07
8.80000000e+03 7.92262832e-40 9.68625251e-40 1.37468552e-39 7.92262832e-40 9.68625251e-40 1.37468552e-39 7.21457764e-08 8.69272647e-08 1.20679380e-07
8.90000000e+03 7.99777826e-40 9.75152874e-40 1.37827045e-39 7.99777826e-40 9.75152874e-40 1.37827045e-39 7.39931161e-08 8.91776731e-08 1.25402660e-07
9.00000000e+03 8.07278787e-40 9.81639908e-40 1.38187846e-39 8.07278787e-40 9.81639908e-40 1.38187846e-39 7.59399519e-08 9.27472053e-08 1.26409317e-07
9.10000000e+03 8.14765372e-40 9.88087539e-40 1.38550973e-39 8.14765372e-40 9.88087539e-40 1.38550973e-39 7.78319001e-08 9.40429639e-08 1.32611100e-07
9.20000000e+03 8.22237274e-40 9.94496936e-40 1.38916440e-39 8.22237274e-40 9.94496936e-40 1.38916440e-39 7.99965757e-08 9.53468745e-08 1.34501858e-07
9.30000000e+03 8.29694214e-40 1.00086925e-39 1.39284261e-39 8.29694214e-40 1.00086925e-39 1.39284261e-39 8.23409563e-08 9.79170368e-08 1.33489786e-07
9.40000000e+03 8.37135945e-40 1.00720561e-39 1.39654449e-39 8.37135945e-40 1.00720561e-39 1.39654449e-39 8.40764028e-08 1.01392860e-07 1.36962965e-07
9.50000000e+03 8.44562249e-40 1.01350714e-39 1.40027013e-39 8.44562249e-40 1.01350714e-39 1.40027013e-39 8.64879826e-08 1.03748099e-07 1.43282102e-07
9.60000000e+03 8.51972935e-40 1.01977493e-39 1.40401962e-39 8.51972935e-40 1.01977493e-39 1.40401962e-39 8.75895309e-08 1.06054429e-07 1.44727431e-07
9.70000000e+03 8.59367842e-40 1.02601005e-39 1.40779304e-39 8.59367842e-40 1.02601005e-39 1.40779304e-39 8.96679619e-08 1.07688533e-07 1.47394222e-07
9.80000000e+03 8.66746829e-40 1.03221356e-39 1.41159043e-39 8.66746829e-40 1.03221356e-39 1.41159043e-39 9.30003973e-08 1.09925304e-07 1.51575552e-07
9.90000000e+03 8.74109783e-40 1.03838649e-39 1.41541184e-39 8.74109783e-40 1.03838649e-39 1.41541184e-39 9.46777401e-08 1.11207180e-07 1.49511721e-07
1.00000000e+04 8.81456613e-40 1.04452985e-39 1.41925732e-39 8.81456613e-40 1.04452985e-39 1.41925732e-39 9.70636008e-08 1.13445290e-07 1.52692225e-07
1.01000000e+04 8.88787249e-40 1.05064465e-39 1.42312686e-39 8.88787249e-40 1.05064465e-39 1.42312686e-39 9.85556330e-08 1.17417032e-07 1.56708446e-07
1.02000000e+04 8.96101643e-40 1.05673186e-39 1.42702049e-39 8.96101643e-40 1.05673186e-39 1.42702049e-39 1.01115529e-07 1.19185301e-07 1.61004398e-07
1.03000000e+04 9.03399765e-40 1.06279243e-39 1.43093820e-39 9.03399765e-40 1.06279243e-39 1.43093820e-39 1.03678999e-07 1.19593685e-07 1.62015418e-07
1.04000000e+04 9.10681607e-40 1.06882730e-39 1.43487998e-39 9.10681607e-40 1.06882730e-39 1.43487998e-39 1.06044096e-07 1.23825068e-07 1.62912520e-07
1.05000000e+04 9.17947174e-40 1.07483737e-39 1.43884581e-39 9.17947174e-40 1.07483737e-39 1.43884581e-39 1.08346218e-07 1.27848760e-07 1.67138891e-07
1.06000000e+04 9.25196491e-40 1.08082355e-39 1.44283566e-39 9.25196491e-40 1.08082355e-39 1.44283566e-39 1.11576843e-07 1.27859624e-07 1.70293217e-07
1.07000000e+04 9.32429596e-40 1.08678672e-39 1.44684950e-39 9.32429596e-40 1.08678672e-39 1.44684950e-39 1.12878620e-07 1.32044631e-07 1.75095994e-07
1.08000000e+04 9.39646546e-40 1.09272771e-39 1.45088727e-39 9.39646546e-40 1.09272771e-39 1.45088727e-39 1.16438692e-07 1.32202404e-07 1.73943008e-07
1.09000000e+04 9.46847407e-40 1.09864738e-39 1.45494892e-39 9.46847407e-40 1.09864738e-39 1.45494892e-39 1.18592206e-07 1.35797834e-07 1.78724466e-07
1.10000000e+04 9.54032260e-40 1.10454653e-39 1.45903439e-39 9.54032260e-40 1.10454653e-39 1.45903439e-39 1.21781745e-07 1.38413550e-07 1.83761445e-07
1.11000000e+04 9.61201200e-40 1.11042597e-39 1.46314362e-39 9.61201200e-40 1.11042597e-39 1.46314362e-39 1.24392823e-07 1.41575603e-07 1.87866128e-07
1.12000000e+04 9.68354331e-40 1.11628647e-39 1.46727653e-39 9.68354331e-40 1.11628647e-39 1.46727653e-39 1.25999607e-07 1.44773291e-07 1.86358568e-07
1.13000000e+04 9.75491768e-40 1.12212879e-39 1.47143305e-39 9.75491768e-40 1.12212879e-39 1.47143305e-39 1.29463285e-07 1.46474952e-07 1.90677518e-07
1.14000000e+04 9.82613637e-40 1.12795368e-39 1.47561309e-39 9.82613637e-40 1.12795368e-39 1.47561309e-39 1.31738711e-07 1.50149768e-07 1.96057503e-07
1.15000000e+04 9.89720073e-40 1.13376186e-39 1.47981656e-39 9.89720073e-40 1.13376186e-39 1.47981656e-39 1.33992247e-07 1.54022383e-07 2.01707711e-07
1.16000000e+04 9.96811219e-40 1.13955403e-39 1.48404337e-39 9.96811219e-40 1.13955403e-39 1.48404337e-39 1.36753109e-07 1.53160729e-07 2.01373089e-07
1.17000000e+04 1.00388723e-39 1.14533089e-39 1.48829342e-39 1.00388723e-39 1.14533089e-39 1.48829342e-39 1.39752836e-07 1.57383313e-07 2.01070278e-07
1.18000000e+04 1.01094825e-39 1.15109310e-39 1.49256660e-39 1.01094825e-39 1.15109310e-39 1.49256660e-39 1.42410199e-07 1.58812689e-07 2.08366061e-07
1.19000000e+04 1.01799446e-39 1.15684132e-39 1.49686282e-39 1.01799446e-39 1.15684132e-39 1.49686282e-39 1.45970261e-07 1.62246071e-07 2.12651998e-07
1.20000000e+04 1.02502603e-39 1.16257618e-39 1.50118195e-39 1.02502603e-39 1.16257618e-39 1.50118195e-39 1.48182562e-07 1.68039830e-07 2.16976968e-07
1.21000000e+04 1.03204314e-39 1.16829832e-39 1.50552389e-39 1.03204314e-39 1.16829832e-39 1.50552389e-39 1.51416988e-07 1.67311437e-07 2.21241637e-07
1.22000000e+04 1.03904596e-39 1.17400833e-39 1.50988851e-39 1.03904596e-39 1.17400833e-39 1.50988851e-39 1.53984460e-07 1.71838321e-07 2.17939371e-07
1.23000000e+04 1.04603468e-39 1.17970680e-39 1.51427570e-39 1.04603468e-39 1.17970680e-39 1.51427570e-39 1.57782914e-07 1.76495868e-07 2.22762486e-07
1.24000000e+04 1.05300951e-39 1.18539431e-39 1.51868534e-39 1.05300951e-39 1.18539431e-39 1.51868534e-39 1.60848295e-07 1.78278686e-07 2.29648205e-07
1.25000000e+04 1.05997062e-39 1.19107141e-39 1.52311729e-39 1.05997062e-39 1.19107141e-39 1.52311729e-39 1.62780787e-07 1.83117656e-07 2.35368187e-07
1.26000000e+04 1.06691822e-39 1.19673866e-39 1.52757143e-39 1.06691822e-39 1.19673866e-39 1.52757143e-39 1.65877992e-07 1.85117897e-07 2.33438896e-07
1.27000000e+04 1.07385252e-39 1.20239658e-39 1.53204763e-39 1.07385252e-39 1.20239658e-39 1.53204763e-39 1.70062693e-07 1.89873672e-07 2.39419985e-07
1.28000000e+04 1.08077371e-39 1.20804568e-39 1.53654576e-39 1.08077371e-39 1.20804568e-39 1.53654576e-39 1.71077897e-07 1.92678513e-07 2.38803201e-07
1.29000000e+04 1.08768201e-39 1.21368647e-39 1.54106567e-39 1.08768201e-39 1.21368647e-39 1.54106567e-39 1.76102708e-07 1.93000232e-07 2.44738922e-07
1.30000000e+04 1.09457762e-39 1.21931944e-39 1.54560724e-39 1.09457762e-39 1.21931944e-39 1.54560724e-39 1.79366272e-07 1.99535106e-07 2.51082822e-07
1.31000000e+04 1.10146076e-39 1.22494505e-39 1.55017033e-39 1.10146076e-39 1.22494505e-39 1.55017033e-39 1.82491772e-07 2.02020925e-07 2.48330870e-07
1.32000000e+04 1.10833163e-39 1.23056378e-39 1.55475479e-39 1.10833163e-39 1.23056378e-39 1.55475479e-39 1.84106693e-07 2.04020316e-07 2.55784023e-07
1.33000000e+04 1.11519044e-39 1.23617607e-39 1.55936048e-39 1.11519044e-39 1.23617607e-39 1.55936048e-39 1.89113460e-07 2.08978710e-07 2.61307100e-07
1.34000000e+04 1.12203743e-39 1.24178235e-39 1.56398726e-39 1.12203743e-39 1.24178235e-39 1.56398726e-39 1.91796543e-07 2.12538826e-07 2.67494065e-07
