t [s],Y_O2(1),Y_O2(2),Y_O2(3),Y_O,T [K],p [Pa],n [m^-3],E [J/kg]
0.0,0.9743589743587745,1.0256410256408154e-13,1.0256410256408154e-13,0.025641025641020387,10000.0,4999.999999999999,3.6214865170753223e+22,7296137.335517704
1e-14,0.9743589729400136,1.349735354959537e-09,4.9735932718896517e-11,0.025641025660515154,10000.0,5000.000000095035,3.621486517144158e+22,7296137.343312655
2e-14,0.9743589715212526,2.6993681395257624e-09,9.936930187630982e-11,0.025641025680009925,10000.0,5000.000000190073,3.6214865172129928e+22,7296137.351107606
1.0002000000000001e-10,0.9743447841577662,1.34987126932907e-05,4.964601120472772e-07,0.02564122066942852,10000.0,5000.000950763488,3.621487205710755e+22,7296215.299984059
2.0002e-10,0.9743305972857162,2.6994097011176107e-05,9.928749513916608e-07,0.025641415742321143,10000.0,5000.001901743839,3.6214878945032586e+22,7296293.247592663
3.0002e-10,0.9743164109050408,4.048885238930494e-05,1.4893438758492303e-06,0.02564161089869397,10000.0,5000.002853131158,3.621488583590527e+22,7296371.19393374
1.30002e-09,0.9741745741105119,0.00017540182899112796,6.457005334833373e-06,0.025643567055162103,10000.0,5000.01238939394,3.621495490679945e+22,7297150.58769936
2.30002e-09,0.9740327863847791,0.00031025198610478647,1.1430062642481169e-05,0.025645531566473607,10000.0,5000.021966386583,3.6215024272698914e+22,7297929.855066231
3.3000200000000004e-09,0.9738910476659749,0.00044503939084054124,1.6408504403791836e-05,0.025647504438780784,10000.0,5000.031584139081,3.621509393382091e+22,7298708.9963536635
4.30002e-09,0.9737493578920197,0.0005797641105175434,2.1392319202151234e-05,0.025649485678260624,10000.0,5000.041242681545,3.6215163890383523e+22,7299488.011882205
1.430002e-08,0.9723351384958178,0.0019235783869228878,7.152349144075427e-05,0.02566975962581852,10000.0,5000.140078175889,3.621587975320388e+22,7307271.320878077
2.430002e-08,0.9709257456420664,0.0032611976798009794,0.00012217959928356197,0.0256908770788491,10000.0,5000.243025759414,3.621662539977528e+22,7315042.40586788
3.430002e-08,0.969521118023976,0.0045926881253858885,0.00017334964831622609,0.025712844202321936,10000.0,5000.350115486344,3.6217401047779662e+22,7322801.585791321
4.430002e-08,0.9681211947972199,0.005918115154265308,0.00022502288966209946,0.02573566715885258,10000.0,5000.46137739943,3.6218206914815877e+22,7330549.178636904
5.4300019999999996e-08,0.9667259155835337,0.00723754348743154,0.00027718881681718414,0.02575935211221748,10000.0,5000.576841547084,3.6219043218523748e+22,7338285.501444187
1.5430002e-07,0.9530155902683445,0.02011563826255028,0.0008237953968784835,0.026044976072225556,10000.0,5001.969258352118,3.622912845589491e+22,7415097.981992607
2.5430002e-07,0.9397066469272999,0.032459924534938615,0.001409710590403358,0.026423717947354985,10000.0,5003.815624993365,3.6242501639688612e+22,7491125.739809605
3.5430002e-07,0.9267461113989802,0.04432397802809386,0.0020276330902240206,0.026902277482698612,10000.0,5006.148602728164,3.625939933451103e+22,7566672.731368132
4.5430002e-07,0.9140851800913914,0.0557550902305779,0.00267169664368055,0.027488033034346816,10000.0,5009.004161042449,3.6280082066378846e+22,7642037.580396568
5.5430002e-07,0.9016789296836655,0.06679463086372714,0.003337139904691183,0.028189299547912768,10000.0,5012.422835296082,3.630484343181046e+22,7717516.011266648
6.5430002e-07,0.8894860266695565,0.07747836286415384,0.004020039092724734,0.029015571373561633,10000.0,5016.45091044612,3.633401867150172e+22,7793403.483943729
8.31589418062724e-07,0.8682779958593959,0.09563581603488498,0.0052637045304570204,0.03082248357525881,10000.0,5025.259607429395,3.639781982621758e+22,7929874.276006279
1.0088788161254481e-06,0.8474339282604452,0.11289741357243321,0.006536590417999209,0.033132067749119136,10000.0,5036.518830276965,3.6479370073688016e+22,8070283.836634416
1.186168214188172e-06,0.8267924134666716,0.12934252390475492,0.007825137072133819,0.03603992555643634,10000.0,5050.694637087636,3.6582045060155035e+22,8216452.413534437
1.363457612250896e-06,0.8062175140692341,0.1449986429584571,0.009115434843186792,0.03966840812911857,10000.0,5068.383489629461,3.6710164942120546e+22,8370367.269877335
1.5407470103136199e-06,0.7855981962695406,0.15983742359874348,0.010391585094305402,0.04417279503740719,10000.0,5090.342375807369,3.6869212562567113e+22,8534245.19661526
1.7533691857914455e-06,0.7606925205172516,0.17642119490380867,0.011875698927990798,0.051010585650945676,10000.0,5123.676605048369,3.7110651486073875e+22,8747511.970104955
1.965991361269271e-06,0.7354978692187681,0.19141301341639214,0.013269193662210679,0.0598199237026257,10000.0,5166.62212805031,3.7421704751114426e+22,8983827.640514757
2.1786135367470968e-06,0.7099582766526406,0.204385115854,0.014519060518520375,0.0711375469748357,10000.0,5221.795541502333,3.7821324296949475e+22,9249183.248100035
2.3912357122249224e-06,0.6840442573293907,0.21477696483139105,0.015562998160529614,0.08561577967868539,10000.0,5292.3769259336,3.833254336109818e+22,9550674.720703283
2.7426565111902757e-06,0.6401876938325045,0.22464367573661273,0.01666094573602297,0.11850768469485659,10000.0,5452.724962887436,3.949393986883379e+22,10151006.281753419
2.830511710931614e-06,0.6289594420647843,0.22543397440993043,0.016789736873705767,0.12881684665157633,10000.0,5502.982127426447,3.9857951156362705e+22,10324970.374269452
2.9183669106729523e-06,0.6175654821877704,0.2255092898043911,0.016860677695110123,0.1400645503127252,10000.0,5557.814682774547,4.025510187614258e+22,10509964.37712044
3.0062221104142907e-06,0.6059725120724669,0.22486145628476922,0.016866320216597803,0.15229971142616275,10000.0,5617.461093202555,4.068711921845652e+22,10706663.616288418
3.094077310155629e-06,0.5941364736431002,0.2234952991767587,0.0168064029574513,0.1655618242226865,10000.0,5682.113893085608,4.115539770459182e+22,10915735.4431195
3.157719455108946e-06,0.5853809500203274,0.2220660745835119,0.016725268712896743,0.17582770668326062,10000.0,5732.160070080908,4.15178808150311e+22,11075281.096749062
3.221361600062263e-06,0.5764517988084756,0.22027855143832628,0.016613558517143603,0.18665609123605123,10000.0,5784.948444775761,4.1900225589462574e+22,11241843.04921091
3.28500374501558e-06,0.5673287356892497,0.21814623201478778,0.0164718806684622,0.19805315162749723,10000.0,5840.509114184063,4.230265001974625e+22,11415598.229431449
3.3345733056806353e-06,0.5600761194852016,0.21625633871653474,0.0163416602477436,0.20732588155051682,10000.0,5885.713672558783,4.263006541707504e+22,11556005.854442168
3.3841428663456904e-06,0.5526844126615262,0.21417535600776255,0.016195058170314382,0.21694517316039372,10000.0,5932.607719156934,4.296971773204764e+22,11700915.652361143
3.4337124270107456e-06,0.5451451678449601,0.2119121845424489,0.01603296836721395,0.22690967924537384,10000.0,5981.18468632121,4.332155939529933e+22,11850361.16407565
3.5397781997392956e-06,0.5284820616528216,0.20650483310975218,0.015638526660911263,0.24937457857651174,10000.0,6090.70107056051,4.411478361314225e+22,12185398.671157764
3.6458439724678457e-06,0.5110568699164733,0.20039777205238402,0.015185631805759681,0.27335972622537985,10000.0,6207.628665348741,4.496168702914151e+22,12541044.84273002
3.7519097451963957e-06,0.49283623598540915,0.19369004737900683,0.014683291457025025,0.29879042517855575,10000.0,6331.6033227454745,4.585963212958411e+22,12916686.765330859
3.872010230032675e-06,0.4712505910154736,0.18548698933540966,0.014065250917226154,0.32919716873188726,10000.0,6479.836197567966,4.693327884469805e+22,13364700.149256278
3.992110714868954e-06,0.44870975869213725,0.17675411586059755,0.01340501634948704,0.36113110909777485,10000.0,6635.514156851668,4.806085010580151e+22,13834487.380953675
4.1122111997052336e-06,0.42532493767965057,0.16760862711975025,0.012712777640370538,0.39435365756022533,10000.0,6797.474080606115,4.923392146616807e+22,14322863.263050096
4.232852524004468e-06,0.40114945349695785,0.158113739806016,0.011995924173390703,0.4287408825236322,10000.0,6965.111802302726,5.0448116963923055e+22,14828208.431511272
4.263012855079277e-06,0.3950163330703513,0.15570317386162186,0.01181293653740518,0.4374675565306184,10000.0,7007.654338086784,5.075625140341138e+22,14956436.389932303
4.293173186154085e-06,0.3888558259674019,0.1532824342195704,0.011627631962052666,0.44623410785097173,10000.0,7050.391275773505,5.106579389063847e+22,15085238.275748823
4.323333517228894e-06,0.38267277068707545,0.15085104309802963,0.011442069893566276,0.45503411632132534,10000.0,7093.291317066479,5.137651773288745e+22,15214529.438336976
4.343638771287801e-06,0.37849908523084264,0.14920880350169863,0.011317360224039836,0.4609747510434156,10000.0,7122.25191133667,5.158627853623941e+22,15301811.871484555
4.450530659533275e-06,0.3564617424839612,0.14053176731853786,0.010658752652355302,0.49234773754514227,10000.0,7275.195220532586,5.269404280049921e+22,15762735.880430434
4.55742254777875e-06,0.3344039911113884,0.13183959338154227,0.00999984765923051,0.5237565678478353,10000.0,7428.313268258216,5.380307269121772e+22,16224164.700141663
4.664314436024224e-06,0.31248650439420705,0.12319986758060968,0.009344646773800569,0.5549689812513792,10000.0,7580.473783600493,5.49051672007043e+22,16682693.55366654
4.7720703127208355e-06,0.29084696492364714,0.11466806498157181,0.008697602771992668,0.5857873673227848,10000.0,7730.713415698597,5.599334880465158e+22,17135426.77036488
4.879826189417447e-06,0.26974762824989196,0.10634941493058998,0.00806664928393095,0.6158363075355835,10000.0,7877.20199923599,5.705436166502384e+22,17576856.549163885
5.0162098498772415e-06,0.24365227798681413,0.09606109917365356,0.007286283116736535,0.6530003397227921,10000.0,8058.376656148634,5.8366604819513616e+22,18122809.72254076
5.152593510337036e-06,0.21881505274321322,0.0862688870557313,0.006543536540627798,0.688372523660424,10000.0,8230.81605284459,5.961557871980764e+22,18642440.22388425
5.288977170796831e-06,0.1954259400470645,0.07704761867711546,0.005844098674756741,0.7216823426010597,10000.0,8393.201420180189,6.079173155656003e+22,19131773.912267257
5.519954742041509e-06,0.1594013478071752,0.06284477495045859,0.004766798552492077,0.7729870786898706,10000.0,8643.312008613144,6.260327580413547e+22,19885459.683723036
5.750932313286187e-06,0.12820601915740082,0.05054591727289079,0.003833925891161484,0.8174141376785433,10000.0,8859.893921182924,6.417197275656316e+22,20538110.003357846
5.981909884530865e-06,0.10192697199915231,0.04018521595900354,0.003048051589360745,0.8548397604524798,10000.0,9042.343832205865,6.549345254218551e+22,21087906.03309436
6.2128874557755435e-06,0.08028257918215372,0.03165189996686615,0.0024008422898684264,0.885664678561108,10000.0,9192.615307985428,6.658186478905891e+22,21540736.41119902
6.443865027020222e-06,0.06277660433781118,0.024749807647915716,0.0018771706106815657,0.9105964174035879,10000.0,9314.15753484252,6.746219186069543e+22,21906990.446967572
6.6748425982649e-06,0.048815749801286015,0.01924623955752475,0.0014602574714022674,0.9304777531697832,10000.0,9411.07904670272,6.816419175752799e+22,22199062.090233225
6.905820169509578e-06,0.03780355452270663,0.014903390471671668,0.001128858117757093,0.9461641968878609,10000.0,9487.55045982835,6.8718072140680315e+22,22429477.923908073
6.9370253846862e-06,0.0365092418622281,0.014392998985914963,0.0010907730167153567,0.948006986135138,10000.0,9496.534057408826,6.878314009570536e+22,22456554.652569033
6.968230599862821e-06,0.03525672632292173,0.013899375342339086,0.001054042731368393,0.9497898556033672,10000.0,9505.225546066444,6.884609231367912e+22,22482753.12796499
6.999435815039442e-06,0.03404499522602964,0.013421939766788694,0.0010181145570935554,0.9515149504500845,10000.0,9513.63538344419,6.8907004539027725e+22,22508099.33282054
7.030641030216064e-06,0.032872936076311504,0.012960087407038856,0.000983084295787531,0.9531838922208586,10000.0,9521.771474576715,6.8965934027704004e+22,22532617.72070545
7.0930514605693065e-06,0.030641681594539887,0.012080654339111808,0.0009163504297731552,0.9563613136365717,10000.0,9537.261403978317,6.90781271686607e+22,22579296.008350123
7.155461890922549e-06,0.02855452221481574,0.011257821253995529,0.0008539175599398062,0.9593337389712454,10000.0,9551.751977484852,6.91830820018179e+22,22622962.019464616
7.217872321275792e-06,0.02660354755013813,0.010488621072400364,0.0007955676225523397,0.9621122637549057,10000.0,9565.297285805194,6.92811903047214e+22,22663779.45282926
7.332936756695061e-06,0.02332991185189118,0.009197950269449182,0.0006976684472564938,0.9667744694313996,10000.0,9588.025538478101,6.944581042594464e+22,22732268.883353334
7.4480011921143306e-06,0.020444014304128316,0.008060156955029096,0.0006113672727660296,0.970884461468073,10000.0,9608.061749656885,6.9590932163219104e+22,22792646.15092043
7.5630656275336e-06,0.01790438840356499,0.0070588927731831865,0.0005354211848087454,0.9745012976384395,10000.0,9625.693825987422,6.971864081661728e+22,22845778.8092781
7.78431713518627e-06,0.013874585269495636,0.005470124103101481,0.00041491232665521744,0.9802403783007442,10000.0,9653.671844216158,6.992128484819698e+22,22930088.050608408
7.961985588543273e-06,0.01130480977616715,0.004456978082426541,0.00033806473156411734,0.9839001474098387,10000.0,9671.513218622993,7.005050944191788e+22,22983851.427449938
8.139654041900276e-06,0.009204882940848308,0.0036290710914705046,0.00027526764478349834,0.9868907783228942,10000.0,9686.09254432414,7.0156107104827365e+22,23027784.91014374
8.317322495257279e-06,0.00748944807942221,0.0029527521672278335,0.00022396854062918032,0.9893338312127171,10000.0,9698.002427162024,7.024237006506208e+22,23063674.26778389
8.494990948614282e-06,0.006090021284562993,0.0024010213244713935,0.0001821194957422295,0.9913268378952197,10000.0,9707.718334739226,7.031274212164603e+22,23092952.280062467
8.672659401971285e-06,0.00494995901385903,0.0019515462946989113,0.00014802660645820385,0.9929504680849802,10000.0,9715.633531914309,7.037007168134515e+22,23116804.014139213
8.850327855328288e-06,0.004022120392348905,0.0015857414312375523,0.00012028013931511913,0.9942718580370948,10000.0,9722.075307930867,7.041672929132512e+22,23136215.726104695
9.02799630868529e-06,0.0032674811725286186,0.001288221245528735,9.77130959762098e-05,0.9953465844859628,10000.0,9727.3145993691,7.045467733793028e+22,23152003.85896889
9.244671782037887e-06,0.002534584400825854,0.0009992731200510348,7.579624715949731e-05,0.99639034623196,10000.0,9732.402937880835,7.049153203655943e+22,23167337.108758822
9.461347255390483e-06,0.001963679552531729,0.0007741910966723972,5.872367132265275e-05,0.9972034056794696,10000.0,9736.366602687443,7.052024075387011e+22,23179281.255621456
9.67802272874308e-06,0.001520326856378157,0.0005993971467903306,4.5465469718007e-05,0.9978348105271098,10000.0,9739.44470131969,7.0542535339259915e+22,23188556.828653477
9.894698202095676e-06,0.0011772180359344493,0.0004641248369835072,3.5205002541584204e-05,0.9983234521245369,10000.0,9741.826829107147,7.0559789026588374e+22,23195735.15624382
1.0111373675448272e-05,0.0009119200819159222,0.000359529836240949,2.7271423722079495e-05,0.9987012786581174,10000.0,9743.668733458353,7.057312989013564e+22,23201285.56915217
1.0328049148800869e-05,0.0007065306861316336,0.0002785540682289167,2.112937398946254e-05,0.9989937858716463,10000.0,9745.094706124304,7.058345817170257e+22,23205582.60934941
1.0544724622153465e-05,0.0005473087107799496,0.0002157800293830727,1.6367934429609625e-05,0.9992205433254038,10000.0,9746.200148711374,7.0591464862551514e+22,23208913.761024315
1.0761400095506062e-05,0.00042385372296633347,0.00016710729991460988,1.2676085010843664e-05,0.9993963628921047,10000.0,9747.05726909904,7.059767296240641e+22,23211496.616112303
1.0978075568858658e-05,0.00032819906766772363,0.000129394988144559,9.815589253260815e-06,0.9995325903549309,10000.0,9747.721377980319,7.060248308512524e+22,23213497.84842371
1.1194751042211254e-05,0.0002541365504713219,0.00010019548130716701,7.600792575356296e-06,0.9996380671756426,10000.0,9748.235577481288,7.060620741824494e+22,23215047.34230645
1.141142651556385e-05,0.00019680193670983245,7.759103117411863e-05,5.886235318308635e-06,0.9997197207967942,10000.0,9748.633638884401,7.060909056625362e+22,23216246.864501193
1.1628101988916447e-05,0.00015240660626140382,6.008795635781093e-05,4.558618101102406e-06,0.9997829468192762,10000.0,9748.941865744,7.06113230450861e+22,23217175.67837437
1.1844777462269043e-05,0.0001180221760980735,4.653172739731818e-05,3.530372972574091e-06,0.9998319157235285,10000.0,9749.180589152233,7.061305211229453e+22,23217895.049874324
1.206145293562164e-05,9.139281117211806e-05,3.603297112066142e-05,2.734037157681788e-06,0.9998698401805459,10000.0,9749.365470880193,7.0614391205664655e+22,23218452.17430894
1.2327096154796677e-05,6.680284067742844e-05,2.6338255930217138e-05,1.998687884539029e-06,0.9999048602155043,10000.0,9749.536193550613,7.061562774536284e+22,23218966.63169528
1.2592739373971715e-05,4.8871415605012875e-05,1.926870471379253e-05,1.4624586852345647e-06,0.9999303974209924,10000.0,9749.660687427368,7.061652945115509e+22,23219341.782777343
1.2810614669745672e-05,3.782784823068306e-05,1.491472469388594e-05,1.1322069868046102e-06,0.9999461252200851,10000.0,9749.737360447945,7.061708479177559e+22,23219572.830017038
1.302848996551963e-05,2.926583907788434e-05,1.1539110420717821e-05,8.761661231676638e-07,0.9999583188843748,10000.0,9749.796804561356,7.061751534388607e+22,23219751.95950656
1.3246365261293588e-05,2.2633256319364488e-05,8.92418231235449e-06,6.778231708350673e-07,0.999967764738194,10000.0,9749.842853098726,7.061784887220049e+22,23219890.72263136
1.3464240557067545e-05,1.75084642888184e-05,6.903708738821442e-06,5.245682779857092e-07,0.9999750632586909,10000.0,9749.87843338615,7.061810657926284e+22,23219997.940615796
1.3682115852841503e-05,1.3550686764404659e-05,5.343335486231789e-06,4.062135611473411e-07,0.9999806997641847,10000.0,9749.90591135043,7.061830560141716e+22,23220080.742988426
1.389999114861546e-05,1.0487799843431926e-05,4.135776809547349e-06,3.146209462126314e-07,0.9999850618023972,10000.0,9749.927176286717,7.061845962277726e+22,23220144.82296805
1.4117866444389418e-05,8.114215568814866e-06,3.1999803654425418e-06,2.436390104795377e-07,0.9999884421650517,10000.0,9749.943655554658,7.061857898167057e+22,23220194.481748123
1.4335741740163376e-05,6.2772663512584565e-06,2.475754633156511e-06,1.8870529891241202e-07,0.999991058273713,10000.0,9749.956409084381,7.061867135514245e+22,23220232.91335509
1.4553617035937333e-05,4.858318058650304e-06,1.9163262298005706e-06,1.4627481435525302e-07,0.9999930790808934,10000.0,9749.966260519384,7.061874270882053e+22,23220262.599785134
1.4801737680379901e-05,3.6315561757029205e-06,1.4326695207578485e-06,1.0958864427252995e-07,0.9999948261856556,10000.0,9749.974777655101,7.061880439820485e+22,23220288.265401572
1.504985832482247e-05,2.7153214297075857e-06,1.0714395338697103e-06,8.218948497510431e-08,0.9999961310495478,10000.0,9749.981138866577,7.061885047228803e+22,23220307.434342343
1.5297978969265038e-05,2.029714402824035e-06,8.011365167537163e-07,6.168483452805968e-08,0.9999971074642422,10000.0,9749.985898888212,7.061888494899638e+22,23220321.778223395
1.5546099613707606e-05,1.5173381609382504e-06,5.99129002251818e-07,4.6364269836659355e-08,0.9999978371685633,10000.0,9749.989456196776,7.061891071448639e+22,23220332.497866355
1.5794220258150174e-05,1.1354005659798494e-06,4.485487319474321e-07,3.4941196153288424e-08,0.9999983811095022,10000.0,9749.99210790885,7.061892992076546e+22,23220340.48854992
1.6042340902592742e-05,8.507619401531659e-07,3.363278824291477e-07,2.643111199233969e-08,0.9999987864790617,10000.0,9749.994084085458,7.06189442341593e+22,23220346.443595257
1.629046154703531e-05,6.381429456944308e-07,2.5250271743606625e-07,2.007052986800908e-08,0.9999990892838033,10000.0,9749.99556025857,7.0618954926041365e+22,23220350.89189123
